Time	[dClk-mRNA]	[PDP1_n]	[VRI_n]	[dCLK_c]	[dCLK_n]	[PER/TIM]	[PER/TIM-dCLK_n]	[vri-mRNA]	[VRI_c]	[pdp1-mRNA]	[PDP1_c]	[per/tim-mRNA]	Values[T2]	Values[periodPDP1_n]	Values[peaktimePDP1_n]	Values[periodPDP1_n2]	Values[entryn]
0	1	1	1	1	1	1	1	1	1	1	1	1	289	0	0	0	3
0.2	1.060865	1.292758	1.14419	1.09696	4.367712e-07	0.2857835	1.473923	0.8788726	1.342719	0.9681366	1.247499	0.9871192	289.2198	0	0	0	3
0.4	1.06815	1.648851	1.341789	1.183658	2.294009e-07	0.5653802	1.089928	0.7703788	1.552953	0.9366577	1.473933	0.9741363	289.439	0	0	0	3
0.6	1.031855	2.059697	1.548262	1.245526	1.586807e-07	0.839073	0.8118105	0.6734762	1.660906	0.9055907	1.679842	0.9610636	289.657	0	0	0	3
0.8	0.9729357	2.516842	1.734552	1.276873	1.212694e-07	1.10751	0.6115929	0.5871731	1.69151	0.8749563	1.865798	0.9479062	289.8732	0	0	0	3
1	0.9055819	3.011998	1.883421	1.279214	9.706968e-08	1.371431	0.4679939	0.5105355	1.665151	0.8447758	2.032401	0.9346702	290.087	0	0	0	3
1.2	0.8373428	3.537083	1.986414	1.257421	7.963558e-08	1.631489	0.3650866	0.4426853	1.598318	0.8150713	2.180288	0.9213625	290.2979	0	0	0	3
1.4	0.7722286	4.084265	2.041389	1.217347	6.629571e-08	1.888166	0.2911314	0.382799	1.504186	0.7858652	2.310128	0.9079909	290.5051	0	0	0	3
1.6	0.712673	4.646009	2.050526	1.164757	5.573743e-08	2.14175	0.2376022	0.3301069	1.393124	0.75718	2.422625	0.8945639	290.7083	0	0	0	3
1.8	0.660602	5.215126	2.018753	1.104974	4.723114e-08	2.392337	0.1983997	0.283891	1.273153	0.7290379	2.518516	0.8810909	290.9068	0	0	0	3
2	0.6181442	5.784818	1.95254	1.042899	4.033511e-08	2.639837	0.1692352	0.2434848	1.150346	0.7014609	2.598571	0.867582	291.1	0	0	0	3
2.2	0.5883278	6.348727	1.858991	0.9832855	3.477138e-08	2.883973	0.1471602	0.2082714	1.02917	0.6744703	2.663586	0.8540478	291.2875	0	0	0	3
2.4	0.5760317	6.90097	1.745196	0.9312708	3.03733e-08	3.124279	0.1302193	0.1776822	0.9127987	0.6480863	2.714384	0.8404998	291.4687	0	0	0	3
2.6	0.5894687	7.436184	1.617786	0.8932574	2.706931e-08	3.360052	0.1172117	0.1511952	0.8033637	0.6223283	2.751809	0.8269499	291.6431	0	0	0	3
2.8	0.6424727	7.94955	1.482663	0.8783393	2.489165e-08	3.590273	0.1075492	0.1283337	0.7021805	0.597214	2.776722	0.8134105	291.8103	0	0	0	3
3	0.7575311	8.436821	1.344844	0.9004726	2.400413e-08	3.813438	0.1012128	0.1086637	0.6099339	0.5727599	2.789994	0.7998945	291.9698	0	0	0	3
3.2	0.9681396	8.89434	1.208422	0.9812807	2.474322e-08	4.027288	0.09880508	0.09179259	0.526833	0.5489804	2.792503	0.7864151	292.1212	0	0	0	3
3.4	1.31597	9.319042	1.076583	1.152208	2.763995e-08	4.228404	0.1016774	0.07736644	0.4527398	0.5258883	2.785126	0.7729858	292.264	0	0	0	3
3.6	1.836215	9.708461	0.9516697	1.452547	3.336258e-08	4.411783	0.1120241	0.06506788	0.387272	0.5034943	2.768735	0.7596201	292.3979	0	0	0	3
3.8	2.533018	10.06072	0.835285	1.919258	4.251977e-08	4.570662	0.1327193	0.05461368	0.3298857	0.4818069	2.744191	0.7463319	292.5224	0	0	0	3
4	3.366311	10.3745	0.7283974	2.570672	5.540031e-08	4.696974	0.1666851	0.04575232	0.2799402	0.4608325	2.712338	0.7331346	292.6373	0	0	0	3
4.2	4.268332	10.64904	0.6314563	3.395518	7.186352e-08	4.7825	0.2159257	0.0382615	0.2367469	0.4405752	2.673997	0.7200421	292.7422	0	0	0	3
4.4	5.173834	10.8841	0.5445014	4.356223	9.1488e-08	4.820237	0.280751	0.03194569	0.1996064	0.4210367	2.629962	0.7070675	292.8369	0	0	0	3
4.6	6.037623	11.07989	0.4672627	5.402151	1.13835e-07	4.805381	0.3596218	0.02663372	0.1678349	0.4022168	2.580997	0.6942241	292.921	0	0	0	3
4.8	6.835365	11.23708	0.3992486	6.482788	1.386619e-07	4.735662	0.449582	0.02217644	0.1407823	0.3841127	2.527828	0.6815246	292.9944	0	0	0	3
5	7.55733	11.35671	0.3398202	7.555615	1.660286e-07	4.611169	0.5469498	0.01844449	0.1178436	0.3667196	2.471144	0.6689813	293.0569	0	0	0	3
5.2	8.202155	11.44016	0.2882522	8.588799	1.963431e-07	4.4339	0.6479615	0.01532616	0.09846615	0.3500307	2.411594	0.6566059	293.1082	0	0	0	3
5.4	8.772675	11.48911	0.2437806	9.560779	2.304093e-07	4.207253	0.7492221	0.0127254	0.08215172	0.334037	2.34978	0.6444096	293.1483	0	0	0	3
5.6	9.273575	11.50547	0.2056395	10.4585	2.695212e-07	3.935554	0.8479439	0.01055995	0.06845693	0.3187278	2.286263	0.632403	293.177	0	0	0	3
5.8	9.710186	11.49132	0.1730873	11.27538	3.156625e-07	3.623666	0.9420194	0.008759658	0.05699121	0.3040907	2.221555	0.6205958	293.1942	5.604869	5.604869	0	3
6	10.08791	11.4489	0.1454249	12.00947	3.718983e-07	3.276696	1.029988	0.007264939	0.04741366	0.2901117	2.156127	0.6089972	293.2	5.604869	5.604869	0	3
6.2	10.41195	11.38054	0.1220067	12.66197	4.431563e-07	2.899771	1.110946	0.006025331	0.03942902	0.2767753	2.090399	0.5976153	293.1942	5.604869	5.604869	0	3
6.4	10.68723	11.28861	0.1022468	13.23612	5.378689e-07	2.497889	1.184438	0.004998272	0.03278341	0.2640649	2.024753	0.5864578	293.177	5.604869	5.604869	0	3
6.6	10.91832	11.17549	0.08562097	13.73638	6.717873e-07	2.075813	1.25035	0.004147968	0.02725984	0.2519628	1.959522	0.5755311	293.1483	5.604869	5.604869	0	3
6.8	11.10948	11.04354	0.0716658	14.16789	8.781786e-07	1.638009	1.308812	0.003444418	0.02267387	0.2404503	1.895002	0.564841	293.1082	5.604869	5.604869	0	3
7	11.26464	10.8951	0.05997572	14.53607	1.241772e-06	1.1886	1.360125	0.002862564	0.01886952	0.2295082	1.831448	0.5543925	293.0569	5.604869	5.604869	0	3
7.2	11.38741	10.73237	0.05019897	14.84636	2.061342e-06	0.7313531	1.404695	0.002381582	0.01571544	0.2191165	1.769078	0.5441896	292.9944	5.604869	5.604869	0	3
7.4	11.48112	10.55751	0.04203279	15.10405	5.687599e-06	0.2696716	1.442987	0.00198457	0.01310163	0.2092553	1.708075	0.5342362	292.921	5.604869	5.604869	0	3
7.6	11.54883	10.3726	0.03533592	15.31421	0.1877279	2.946779e-06	1.299767	0.0212656	0.01340271	0.2180555	1.649755	0.5426278	292.8369	5.604869	5.604869	0	3
7.8	11.5935	10.18607	0.04209353	15.48162	0.5649129	1.264917e-06	1.048391	0.1986111	0.08945722	0.3820209	1.632142	0.7072395	292.7422	5.604869	5.604869	0	3
8	11.61916	10.03064	0.109608	15.61103	0.7968186	1.267891e-06	0.9780633	0.4853464	0.3334807	0.6737718	1.718168	1.004931	292.6373	5.604869	5.604869	0	3
8.2	11.63181	9.955093	0.2877891	15.70788	0.8628162	1.581973e-06	1.054186	0.7894493	0.7440614	1.015278	1.935077	1.360333	292.5224	5.604869	5.604869	0	3
8.4	11.61072	10.00604	0.5969714	15.77552	0.777314	2.193859e-06	1.228134	1.035226	1.255028	1.332944	2.273863	1.700335	292.3979	5.604869	5.604869	0	3
8.6	11.24687	10.21446	1.019525	15.75947	0.5792365	3.40733e-06	1.446425	1.17392	1.772168	1.57069	2.698643	1.967503	292.264	5.604869	5.604869	0	3
8.8	10.25523	10.5889	1.507035	15.45915	0.3150899	6.77333e-06	1.659746	1.185741	2.203614	1.695729	3.159001	2.12646	292.1212	5.604869	5.604869	0	3
9	9.118899	11.11478	1.994729	14.8091	0.02770084	7.835525e-05	1.829105	1.074411	2.479208	1.696933	3.601513	2.162937	291.9698	5.604869	5.604869	0	3
9.2	8.072083	11.7587	2.417634	13.92217	5.428188e-06	0.2609793	1.714775	0.91029	2.571061	1.628018	3.984339	2.127576	291.8103	5.604869	5.604869	0	3
9.4	7.146685	12.48195	2.735068	12.91606	2.3285e-06	0.5643569	1.589644	0.7726505	2.530192	1.56232	4.304361	2.092743	291.6431	5.604869	5.604869	0	3
9.6	6.336047	13.25229	2.939025	11.87373	1.364845e-06	0.88511	1.473272	0.6574727	2.410466	1.500227	4.569464	2.059006	291.4687	5.604869	5.604869	0	3
9.8	5.627502	14.04414	3.039451	10.84791	9.026117e-07	1.222793	1.362432	0.5609088	2.247699	1.441542	4.786657	2.026344	291.2875	5.604869	5.604869	0	3
10	5.008407	14.83749	3.053744	9.869996	6.374965e-07	1.575313	1.256393	0.479789	2.065299	1.386075	4.962144	1.994734	291.1	5.604869	5.604869	0	3
10.2	4.467391	15.61696	3.001005	8.957068	4.698553e-07	1.93976	1.15543	0.4115009	1.87821	1.333644	5.101414	1.96415	290.9068	5.604869	5.604869	0	3
10.4	3.994597	16.371	2.899127	8.11697	3.571002e-07	2.312935	1.060082	0.3538898	1.695645	1.284077	5.209303	1.934568	290.7083	5.604869	5.604869	0	3
10.6	3.581664	17.09118	2.763513	7.351755	2.779298e-07	2.691659	0.970826	0.305177	1.522978	1.237206	5.290073	1.905961	290.5051	5.604869	5.604869	0	3
10.8	3.221701	17.77161	2.606715	6.660034	2.20536e-07	3.072963	0.8879585	0.2638929	1.363045	1.192874	5.347466	1.8783	290.2979	5.604869	5.604869	0	3
11	2.909286	18.40844	2.438543	6.038573	1.77884e-07	3.454171	0.8115846	0.2288216	1.217037	1.15093	5.384764	1.851557	290.087	5.604869	5.604869	0	3
11.2	2.640573	18.99945	2.266387	5.483392	1.455598e-07	3.832931	0.7416489	0.1989559	1.085101	1.11123	5.404842	1.825703	289.8732	5.604869	5.604869	0	3
11.4	2.413519	19.5437	2.095618	4.990576	1.206825e-07	4.20721	0.677984	0.1734606	0.9667541	1.073639	5.410211	1.800708	289.657	5.604869	5.604869	0	3
11.6	2.2283	20.04124	1.929986	4.556922	1.013198e-07	4.575258	0.6203633	0.1516417	0.8611519	1.038029	5.403059	1.776543	289.439	5.604869	5.604869	0	3
11.8	2.087925	20.49287	1.771973	4.180557	8.615266e-08	4.935554	0.5685515	0.1329221	0.7672701	1.004277	5.385295	1.753177	289.2198	5.604869	5.604869	0	3
12	1.999024	20.89993	1.623097	3.861562	7.427674e-08	5.28674	0.5223553	0.1168206	0.6840182	0.9722696	5.358574	1.730581	289	5.604869	5.604869	0	3
12.2	1.972626	21.26418	1.484163	3.60266	6.508076e-08	5.627536	0.4816731	0.1029356	0.6103118	0.941898	5.324333	1.708725	288.7802	5.604869	5.604869	0	3
12.4	2.024395	21.58763	1.355458	3.40984	5.817021e-08	5.956643	0.446545	0.09093138	0.5451156	0.9130599	5.283816	1.687579	288.561	5.604869	5.604869	0	3
12.6	2.173395	21.87249	1.236905	3.29266	5.331147e-08	6.272645	0.4171984	0.08052648	0.4874669	0.8856591	5.238095	1.667113	288.343	5.604869	5.604869	0	3
12.8	2.438326	22.12104	1.128183	3.263722	5.038431e-08	6.573917	0.3940745	0.07148476	0.4364869	0.859605	5.188097	1.6473	288.1268	5.604869	5.604869	0	3
13	2.831132	22.33558	1.028808	3.336799	4.933105e-08	6.858585	0.3778159	0.06360756	0.3913833	0.8348125	5.134615	1.628109	287.913	5.604869	5.604869	0	3
13.2	3.350315	22.5184	0.9382076	3.523588	5.009906e-08	7.124557	0.3691915	0.05672748	0.3514488	0.8112015	5.078331	1.609514	287.7021	5.604869	5.604869	0	3
13.4	3.978174	22.67175	0.8557578	3.83001	5.259367e-08	7.369653	0.3689584	0.05070316	0.3160562	0.7886966	5.019827	1.591486	287.4949	5.604869	5.604869	0	3
13.6	4.684484	22.79776	0.7808229	4.253735	5.665306e-08	7.591811	0.3776918	0.04541499	0.2846522	0.7672273	4.959597	1.573999	287.2917	5.604869	5.604869	0	3
13.8	5.434498	22.8985	0.7127748	4.784088	6.205546e-08	7.789301	0.3956392	0.04076154	0.2567505	0.7467271	4.898064	1.557026	287.0932	5.604869	5.604869	0	3
14	6.19654	22.97591	0.6510093	5.404134	6.854804e-08	7.960887	0.4226478	0.03665664	0.2319247	0.7271339	4.83558	1.540541	286.9	5.604869	5.604869	0	3
14.2	6.946182	23.0318	0.5949546	6.093739	7.58802e-08	8.105906	0.4581759	0.03302689	0.209802	0.7083893	4.772445	1.52452	286.7125	5.604869	5.604869	0	3
14.4	7.666981	23.06788	0.5440773	6.832378	8.382845e-08	8.224251	0.5013693	0.0298097	0.1900563	0.6904384	4.708907	1.508938	286.5313	5.604869	5.604869	0	3
14.6	8.349267	23.08572	0.4978841	7.601105	9.220915e-08	8.316308	0.5511674	0.02695151	0.172403	0.67323	4.645172	1.493771	286.3569	5.604869	5.604869	0	3
14.8	8.98834	23.08677	0.4559227	8.383603	1.008813e-07	8.382852	0.6064094	0.02440646	0.1565935	0.6567158	4.581411	1.478997	286.1897	9.107538	14.71241	5.604869	3
15	9.582812	23.07237	0.417781	9.166537	1.097431e-07	8.424944	0.6659237	0.02213516	0.1424112	0.6408507	4.51776	1.464593	286.0302	9.107538	14.71241	5.604869	3
15.2	10.13335	23.04373	0.3830845	9.939465	1.187261e-07	8.443835	0.7285928	0.02010371	0.1296663	0.6255925	4.454331	1.450536	285.8788	9.107538	14.71241	5.604869	3
15.4	10.64178	23.00198	0.3514951	10.69452	1.277888e-07	8.440883	0.7933955	0.01828289	0.1181934	0.6109013	4.391209	1.436807	285.736	9.107538	14.71241	5.604869	3
15.6	11.11056	22.94812	0.3227075	11.42603	1.369107e-07	8.417488	0.8594292	0.01664745	0.1078479	0.5967401	4.328463	1.423386	285.6021	9.107538	14.71241	5.604869	3
15.8	11.54236	22.88306	0.2964473	12.13008	1.460874e-07	8.375045	0.9259181	0.01517552	0.09850291	0.583074	4.266141	1.410251	285.4776	9.107538	14.71241	5.604869	3
16	11.93991	22.80761	0.2724679	12.80415	1.553266e-07	8.314907	0.9922109	0.01384815	0.09004759	0.5698702	4.204279	1.397384	285.3627	9.107538	14.71241	5.604869	3
16.2	12.30586	22.72252	0.2505479	13.44682	1.64646e-07	8.23836	1.057773	0.01264883	0.08238461	0.5570982	4.142897	1.384768	285.2578	9.107538	14.71241	5.604869	3
16.4	12.64269	22.62845	0.2304891	14.05748	1.740705e-07	8.146613	1.122174	0.01156323	0.07542853	0.5447292	4.082009	1.372383	285.1631	9.107538	14.71241	5.604869	3
16.6	12.95271	22.52597	0.2121136	14.63613	1.836315e-07	8.040782	1.185077	0.01057879	0.06910423	0.5327363	4.021617	1.360213	285.079	9.107538	14.71241	5.604869	3
16.8	13.23803	22.41561	0.1952622	15.1832	1.93366e-07	7.921892	1.246223	0.009684578	0.06334561	0.5210942	3.961716	1.348241	285.0056	9.107538	14.71241	5.604869	3
17	13.50059	22.29781	0.1797923	15.69943	2.033159e-07	7.790872	1.305419	0.008870978	0.05809439	0.5097793	3.902295	1.33645	284.9431	9.107538	14.71241	5.604869	3
17.2	13.74212	22.17297	0.165576	16.18577	2.135288e-07	7.648563	1.362528	0.00812957	0.05329914	0.4987694	3.843338	1.324827	284.8918	9.107538	14.71241	5.604869	3
17.4	13.96422	22.04145	0.1524989	16.6433	2.240577e-07	7.495714	1.417458	0.007452944	0.0489144	0.4880437	3.784824	1.313354	284.8517	9.107538	14.71241	5.604869	3
17.6	14.1683	21.90353	0.1404582	17.07315	2.34962e-07	7.332997	1.470153	0.006834573	0.04489992	0.4775826	3.72673	1.302018	284.823	9.107538	14.71241	5.604869	3
17.8	14.35565	21.75947	0.1293618	17.47649	2.463086e-07	7.161001	1.520585	0.006268698	0.04122003	0.467368	3.669029	1.290804	284.8058	9.107538	14.71241	5.604869	3
18	14.52741	21.60948	0.119127	17.85449	2.581731e-07	6.980249	1.56875	0.005750224	0.03784307	0.4573827	3.611693	1.279699	284.8	9.107538	14.71241	5.604869	3
18.2	14.68462	21.45373	0.1096795	18.2083	2.706415e-07	6.791194	1.61466	0.005274639	0.03474089	0.4476108	3.554692	1.26869	284.8058	9.107538	14.71241	5.604869	3
18.4	14.82821	21.29238	0.1009526	18.53901	2.838125e-07	6.594233	1.658339	0.004837941	0.03188841	0.4380372	3.497994	1.257763	284.823	9.107538	14.71241	5.604869	3
18.6	14.95899	21.12553	0.09288605	18.84765	2.978006e-07	6.389708	1.699823	0.004436569	0.02926327	0.4286481	3.441569	1.246907	284.8517	9.107538	14.71241	5.604869	3
18.8	15.0777	20.95328	0.08542576	19.13521	3.127396e-07	6.177913	1.739151	0.004067355	0.02684551	0.4194303	3.385385	1.236109	284.8918	9.107538	14.71241	5.604869	3
19	15.18502	20.77568	0.07852287	19.40261	3.287871e-07	5.959098	1.776369	0.00372747	0.02461724	0.4103717	3.32941	1.225358	284.9431	9.107538	14.71241	5.604869	3
19.2	15.28152	20.59278	0.07213326	19.65071	3.461311e-07	5.733476	1.811523	0.003414386	0.02256246	0.401461	3.273613	1.214642	285.0056	9.107538	14.71241	5.604869	3
19.4	15.36773	20.4046	0.06621704	19.88027	3.64998e-07	5.501229	1.844661	0.00312584	0.02066677	0.3926878	3.217965	1.203951	285.079	9.107538	14.71241	5.604869	3
19.6	15.4441	20.21115	0.0607381	20.09204	3.856634e-07	5.262506	1.87583	0.002859799	0.01891726	0.3840423	3.162435	1.193275	285.1631	9.107538	14.71241	5.604869	3
19.8	15.51105	20.01242	0.05566366	20.28665	4.084668e-07	5.017435	1.905076	0.002614437	0.01730227	0.3755157	3.106998	1.182603	285.2578	9.107538	14.71241	5.604869	3
20	15.56894	19.8084	0.05096395	20.46472	4.338319e-07	4.766125	1.932444	0.002388108	0.01581126	0.3670996	3.051625	1.171925	285.3627	9.107538	14.71241	5.604869	3
20.2	15.61807	19.59907	0.04661189	20.62678	4.622949e-07	4.508666	1.957974	0.002179327	0.01443473	0.3587867	2.996295	1.161233	285.4776	9.107538	14.71241	5.604869	3
20.4	15.65872	19.38438	0.04258276	20.77332	4.945457e-07	4.245137	1.981707	0.001986748	0.01316403	0.3505701	2.940983	1.150518	285.6021	9.107538	14.71241	5.604869	3
20.6	15.69114	19.16432	0.03885397	20.90476	5.314869e-07	3.975609	2.003679	0.001809152	0.01199133	0.3424437	2.88567	1.13977	285.736	9.107538	14.71241	5.604869	3
20.8	15.71551	18.93883	0.03540482	21.02151	5.743223e-07	3.700148	2.023924	0.00164543	0.01090946	0.334402	2.830338	1.128983	285.8788	9.107538	14.71241	5.604869	3
21	15.73203	18.70788	0.03221632	21.12391	6.246988e-07	3.418819	2.042472	0.001494571	0.009911906	0.3264403	2.774973	1.118148	286.0302	9.107538	14.71241	5.604869	3
21.2	15.74083	18.47144	0.02927095	21.21227	6.849274e-07	3.131688	2.059352	0.001355651	0.008992679	0.3185542	2.719562	1.107258	286.1897	9.107538	14.71241	5.604869	3
21.4	15.74204	18.22948	0.02655256	21.28684	7.583555e-07	2.838827	2.07459	0.001227823	0.00814629	0.3107403	2.664097	1.096306	286.3569	9.107538	14.71241	5.604869	3
21.6	15.73577	17.98198	0.02404619	21.34789	8.500283e-07	2.540316	2.088208	0.00111031	0.00736768	0.3029956	2.608572	1.085287	286.5313	9.107538	14.71241	5.604869	3
21.8	15.7221	17.72893	0.02173793	21.3956	9.679169e-07	2.236248	2.100229	0.001002396	0.006652177	0.2953178	2.552984	1.074195	286.7125	9.107538	14.71241	5.604869	3
22	15.70111	17.47032	0.01961483	21.43018	1.1254e-06	1.926729	2.11067	0.0009034243	0.005995454	0.2877051	2.497335	1.063024	286.9	9.107538	14.71241	5.604869	3
22.2	15.67285	17.20619	0.01766481	21.45179	1.346792e-06	1.611885	2.119551	0.0008127872	0.005393495	0.2801564	2.441628	1.05177	287.0932	9.107538	14.71241	5.604869	3
22.4	15.63737	16.93655	0.01587653	21.46057	1.681384e-06	1.291859	2.126886	0.0007299313	0.004842562	0.2726711	2.385874	1.040429	287.2917	9.107538	14.71241	5.604869	3
22.6	15.59471	16.66147	0.01423934	21.45666	2.246606e-06	0.9668219	2.13269	0.0006543623	0.004339177	0.2652492	2.330084	1.028997	287.4949	9.107538	14.71241	5.604869	3
22.8	15.54491	16.38102	0.01274322	21.44019	3.40795e-06	0.6369676	2.136979	0.0005856816	0.003880112	0.2578912	2.274274	1.017472	287.7021	9.107538	14.71241	5.604869	3
23	15.488	16.0953	0.01137873	21.41127	7.166976e-06	0.3025211	2.139764	0.0005237893	0.003462438	0.2505986	2.218466	1.005852	287.913	9.107538	14.71241	5.604869	3
23.2	15.42401	15.80443	0.01013716	21.37002	0.03615364	2.806149e-05	2.105323	0.001108113	0.00309804	0.2439564	2.16269	0.9947186	288.1268	9.107538	14.71241	5.604869	3
23.4	15.35299	15.50913	0.01011921	21.31655	0.3573674	2.96181e-06	1.821643	0.06437928	0.01640287	0.2962785	2.113581	1.042579	288.343	9.107538	14.71241	5.604869	3
23.6	15.27507	15.215	0.02124098	21.251	0.6274457	1.903981e-06	1.633097	0.2159624	0.08874229	0.4378501	2.095761	1.181105	288.561	9.107538	14.71241	5.604869	3
23.8	15.19081	14.9354	0.06361433	21.1736	0.8238676	1.705776e-06	1.539694	0.4285594	0.252736	0.6501877	2.133023	1.393386	288.7802	9.107538	14.71241	5.604869	3
24	15.10147	14.69002	0.1605433	21.08482	0.9311522	1.789835e-06	1.535681	0.6701252	0.519087	0.9081322	2.242293	1.655536	289	9.107538	14.71241	5.604869	3
24.2	15.00782	14.50247	0.331749	20.98551	0.9426608	2.06825e-06	1.609099	0.9068134	0.8774108	1.182108	2.431677	1.938801	289.2198	9.107538	14.71241	5.604869	3
24.4	14.88463	14.39723	0.5878825	20.87399	0.8615922	2.580796e-06	1.742136	1.106369	1.298955	1.441052	2.6993	2.212391	289.439	9.107538	14.71241	5.604869	3
24.6	14.51915	14.39626	0.926821	20.71518	0.7005221	3.509782e-06	1.912329	1.241566	1.741192	1.65569	3.033176	2.446705	289.657	9.107538	14.71241	5.604869	3
24.8	13.60041	14.51563	1.332132	20.37437	0.4779821	5.500724e-06	2.094475	1.292869	2.153872	1.801435	3.412197	2.616238	289.8732	9.107538	14.71241	5.604869	3
25	12.39134	14.76255	1.773807	19.73625	0.2145819	1.265419e-05	2.262831	1.249444	2.485525	1.859993	3.807984	2.701253	290.087	9.107538	14.71241	5.604869	3
25.2	11.17622	15.13308	2.211008	18.82451	2.871943e-05	0.06664617	2.329372	1.112687	2.689684	1.823402	4.18738	2.691924	290.2979	9.107538	14.71241	5.604869	3
25.4	10.03593	15.61216	2.598904	17.71655	4.917313e-06	0.3662907	2.176842	0.9621668	2.75271	1.758068	4.526524	2.65286	290.5051	9.107538	14.71241	5.604869	3
25.6	8.986261	16.18069	2.9059	16.48806	2.411676e-06	0.6951809	2.032613	0.829726	2.709438	1.693897	4.824269	2.613632	290.7083	9.107538	14.71241	5.604869	3
25.8	8.027418	16.8201	3.118242	15.20097	1.462813e-06	1.056902	1.891668	0.7135628	2.592608	1.630941	5.082324	2.574269	290.9068	9.107538	14.71241	5.604869	3
26	7.155538	17.51265	3.234791	13.90288	9.734416e-07	1.45301	1.752099	0.6120019	2.427813	1.569249	5.302472	2.5348	291.1	9.107538	14.71241	5.604869	3
